experiment 2019-01-28_au in o2 800um nozzle_irregular-January212020161648				
Counts per Second				
	Characteristic Energy eV	1486.61	Acquisition Time s	1
KE_Counts per Second	BE_Counts per Second	CPS_Counts per Second	Background_Counts per Second	
1306.61	180	1021.48	989.847	
1306.71	179.9	1015.41	1043.01	
1306.81	179.8	1015.83	993.842	
1306.91	179.7	1002.79	1025.93	
1307.01	179.6	995.625	1000.08	
1307.11	179.5	990.726	996.755	
1307.21	179.4	995.56	973.115	
1307.31	179.3	1021.38	979.732	
1307.41	179.2	991.408	919.145	
1307.51	179.1	1010.43	1029.75	
1307.61	179	1000.15	1002.84	
1307.71	178.9	1006.98	975.202	
1307.81	178.8	1013.54	1032.09	
1307.91	178.7	1026.04	1026.55	
1308.01	178.6	1021.23	1038.19	
1308.11	178.5	1050.16	1098.24	
1308.21	178.4	1039.47	958.055	
1308.31	178.3	1033.73	1005.98	
1308.41	178.2	1032.92	1038.54	
1308.51	178.1	1018.36	1036.92	
1308.61	178	1031.47	1012.17	
1308.71	177.9	1023.7	958.167	
1308.81	177.8	1024.64	1039.45	
1308.91	177.7	1033.16	1077.78	
1309.01	177.6	1032.77	987.545	
1309.11	177.5	1029.31	1017	
1309.21	177.4	1024.3	1058.59	
1309.31	177.3	1030.97	1042	
1309.41	177.2	1051.41	1096.4	
1309.51	177.1	1012.16	1066.4	
1309.61	177	1011.25	900.77	
1309.71	176.9	1028	1039	
1309.81	176.8	1035.4	1073.67	
1309.91	176.7	1035.49	1075.05	
1310.01	176.6	1042.51	1049.72	
1310.11	176.5	1008.24	1042.51	
1310.21	176.4	1027.77	1118.85	
1310.31	176.3	1004.72	1048.94	
1310.41	176.2	1010.92	1023.82	
1310.51	176.1	995.132	874.95	
1310.61	176	1010.22	1005.11	
1310.71	175.9	1030.53	1050.51	
1310.81	175.8	1033.66	1064.78	
1310.91	175.7	1011.34	1021.8	
1311.01	175.6	1014.37	983.565	
1311.11	175.5	1017.42	1046.42	
1311.21	175.4	1025.95	1048.95	
1311.31	175.3	1035.96	988.893	
1311.41	175.2	1011.06	981.42	
1311.51	175.1	1022.88	1023.85	
1311.61	175	1015.63	1058.76	
1311.71	174.9	1024.95	1021.79	
1311.81	174.8	1003.69	1030.5	
1311.91	174.7	1017.27	1040.42	
1312.01	174.6	1030.3	1137.26	
1312.11	174.5	1018.9	1035.64	
1312.21	174.4	1043.05	950.732	
1312.31	174.3	1014.07	977.097	
1312.41	174.2	1027.74	1064.68	
1312.51	174.1	1037.57	988.55	
1312.61	174	1043.02	972.938	
1312.71	173.9	1025.41	1061.17	
1312.81	173.8	1028.68	1090.7	
1312.91	173.7	1041.58	1101.42	
1313.01	173.6	1031.24	1026.55	
1313.11	173.5	1033.6	1056.23	
1313.21	173.4	1034.91	1001.29	
1313.31	173.3	1029.13	997.41	
1313.41	173.2	1041.87	1053.08	
1313.51	173.1	1035.92	1051.65	
1313.61	173	1053.23	1038.11	
1313.71	172.9	1024.81	1061.21	
1313.81	172.8	1027.6	981.903	
1313.91	172.7	1038.43	995.65	
1314.01	172.6	1055.44	1079.33	
1314.11	172.5	1050.31	1062.65	
1314.21	172.4	1018.86	953.632	
1314.31	172.3	1025.12	978.847	
1314.41	172.2	1039.36	1058.38	
1314.51	172.1	1069.16	1117.71	
1314.61	172	1045.21	1040.05	
1314.71	171.9	1059.59	1068.49	
1314.81	171.8	1055.36	1060.19	
1314.91	171.7	1039.83	1080.01	
1315.01	171.6	1030.65	1043.77	
1315.11	171.5	1025.42	936.86	
1315.21	171.4	1038.34	1008.74	
1315.31	171.3	1039.57	1042.29	
1315.41	171.2	1029.88	960.977	
1315.51	171.1	1055.15	1015.01	
1315.61	171	1024.91	986.737	
1315.71	170.9	1042.15	1064.85	
1315.81	170.8	1050.36	1081.58	
1315.91	170.7	1054.57	1016.1	
1316.01	170.6	1024.44	1046.43	
1316.11	170.5	1026.34	1042.36	
1316.21	170.4	1021.16	1015.64	
1316.31	170.3	1051.7	1039.65	
1316.41	170.2	1014	1027.34	
1316.51	170.1	1016.28	992.422	
1316.61	170	1039.15	1019.76	
1316.71	169.9	1076.62	1066.56	
1316.81	169.8	1070.09	1088.94	
1316.91	169.7	1040.35	1018.32	
1317.01	169.6	1043.48	1017.39	
1317.11	169.5	1041.09	996.945	
1317.21	169.4	1035.62	989.197	
1317.31	169.3	1045.11	1074.16	
1317.41	169.2	1018.85	1003.66	
1317.51	169.1	1047.1	1042.04	
1317.61	169	1050.9	1061.29	
1317.71	168.9	1009	1053.4	
1317.81	168.8	1037.92	1011.65	
1317.91	168.7	1032.91	1065.66	
1318.01	168.6	1028.68	1020.77	
1318.11	168.5	1055.27	1063.19	
1318.21	168.4	1043.78	1090.04	
1318.31	168.3	1046.4	1105.73	
1318.41	168.2	1030.58	1039.17	
1318.51	168.1	1013.02	949.335	
1318.61	168	1035.68	1034.88	
1318.71	167.9	1010.92	1031.43	
1318.81	167.8	1036.75	1126.22	
1318.91	167.7	1052.05	1110.4	
1319.01	167.6	1051.9	1001.28	
1319.11	167.5	1029.99	1044.14	
1319.21	167.4	1038.09	1019.24	
1319.31	167.3	1074.46	1033.31	
1319.41	167.2	1086.02	1062.26	
1319.51	167.1	1093.02	1074.9	
1319.61	167	1053.83	1075.02	
1319.71	166.9	1061.08	1082.23	
1319.81	166.8	1049.12	1058.78	
1319.91	166.7	1062.85	1041.16	
1320.01	166.6	1032.42	982.13	
1320.11	166.5	1022.85	1053.56	
1320.21	166.4	1045.25	1035.32	
1320.31	166.3	1041.16	984.497	
1320.41	166.2	1018.92	1010.9	
1320.51	166.1	1056.09	976.025	
1320.61	166	1050.86	1054.65	
1320.71	165.9	1033.42	1004.38	
1320.81	165.8	1062.04	1074.62	
1320.91	165.7	1040.28	1100.72	
1321.01	165.6	1060.6	1024.97	
1321.11	165.5	1042.81	1054.2	
1321.21	165.4	1064.1	1102.11	
1321.31	165.3	1057.29	1019.89	
1321.41	165.2	1055.12	1048.99	
1321.51	165.1	1015.28	1095.37	
1321.61	165	1026.54	1051.84	
1321.71	164.9	1053.82	1050.08	
1321.81	164.8	1054.63	1054.68	
1321.91	164.7	1054.63	1048.36	
1322.01	164.6	1034.96	1017.7	
1322.11	164.5	1048.2	1076.3	
1322.21	164.4	1052.41	1072.18	
1322.31	164.3	1061.15	1090.04	
1322.41	164.2	1054.75	1082.1	
1322.51	164.1	1036.82	1170.44	
1322.61	164	1037.48	1004.06	
1322.71	163.9	1070.71	1038.94	
1322.81	163.8	1056.27	1004.07	
1322.91	163.7	1073.71	1127.5	
1323.01	163.6	1048.37	1092.25	
1323.11	163.5	1068.75	1092.88	
1323.21	163.4	1039.61	1081.09	
1323.31	163.3	1046.86	1053.3	
1323.41	163.2	1040.39	1124.23	
1323.51	163.1	1069.75	1006.39	
1323.61	163	1062.88	994.152	
1323.71	162.9	1066.32	1058.27	
1323.81	162.8	1067.37	1073.2	
1323.91	162.7	1065.49	1096.79	
1324.01	162.6	1042.96	1089.31	
1324.11	162.5	1072.56	997.193	
1324.21	162.4	1050.79	997.648	
1324.31	162.3	1063.11	1115.18	
1324.41	162.2	1067.2	1133.93	
1324.51	162.1	1075.94	1061.16	
1324.61	162	1084.84	1037.06	
1324.71	161.9	1049.94	1049.57	
1324.81	161.8	1046.76	1116.86	
1324.91	161.7	1077.18	1116.26	
1325.01	161.6	1045.95	1077.47	
1325.11	161.5	1023.11	1003.66	
1325.21	161.4	1052.49	961.557	
1325.31	161.3	1080.2	1096.64	
1325.41	161.2	1065.46	1076.7	
1325.51	161.1	1074.26	1144.87	
1325.61	161	1085.48	1102.64	
1325.71	160.9	1083.47	1098.69	
1325.81	160.8	1076.76	1067.72	
1325.91	160.7	1051.35	1038.29	
1326.01	160.6	1071.1	1032.04	
1326.11	160.5	1078.85	1106.89	
1326.21	160.4	1056.6	1044.52	
1326.31	160.3	1057.78	1031.91	
1326.41	160.2	1046.82	1061.61	
1326.51	160.1	1081.28	1046.18	
1326.61	160	1086.82	1057.15	
1326.71	159.9	1071.8	1048.53	
1326.81	159.8	1053	1063.95	
1326.91	159.7	1055.72	1047.2	
1327.01	159.6	1067.97	1062.91	
1327.11	159.5	1040.67	1049.03	
1327.21	159.4	1053.05	1064.69	
1327.31	159.3	1064.31	1039.27	
1327.41	159.2	1093.6	1163.19	
1327.51	159.1	1096.46	1098.25	
1327.61	159	1086.97	1019.12	
1327.71	158.9	1062.84	1069.01	
1327.81	158.8	1061.14	1083.19	
1327.91	158.7	1053.95	1007.49	
1328.01	158.6	1065.67	977.477	
1328.11	158.5	1075.54	1104.93	
1328.21	158.4	1073.47	1138.05	
1328.31	158.3	1091.97	1088.48	
1328.41	158.2	1095.17	1066.15	
1328.51	158.1	1097.12	1090.77	
1328.61	158	1067.14	1166.81	
1328.71	157.9	1044.77	1066.68	
1328.81	157.8	1064.15	1053.18	
1328.91	157.7	1058.95	1064.45	
1329.01	157.6	1053.87	1003.58	
1329.11	157.5	1069.35	1053.17	
1329.21	157.4	1074.85	1094.83	
1329.31	157.3	1060.94	1038.38	
1329.41	157.2	1079.9	1135.65	
1329.51	157.1	1088.25	1098.12	
1329.61	157	1074.5	1102.5	
1329.71	156.9	1063.8	1062.68	
1329.81	156.8	1105.85	1203.61	
1329.91	156.7	1077.94	1131.78	
1330.01	156.6	1070.4	1153.81	
1330.11	156.5	1091.83	1172.29	
1330.21	156.4	1106.88	1182.19	
1330.31	156.3	1110.39	1189.09	
1330.41	156.2	1086.22	1052.23	
1330.51	156.1	1073.5	1074.81	
1330.61	156	1090.96	1071.78	
1330.71	155.9	1099.08	1086.58	
1330.81	155.8	1090.24	1109.08	
1330.91	155.7	1098.7	1149.98	
1331.01	155.6	1092.27	1141.6	
1331.11	155.5	1074.64	1051.14	
1331.21	155.4	1102.48	1057.38	
1331.31	155.3	1070.37	1074.73	
1331.41	155.2	1099.48	1117.84	
1331.51	155.1	1061.23	1019.34	
1331.61	155	1095.24	1176.37	
1331.71	154.9	1094.59	1097.95	
1331.81	154.8	1071.87	1121.99	
1331.91	154.7	1103.63	1202.37	
1332.01	154.6	1122.76	1206.22	
1332.11	154.5	1097.86	1173.21	
1332.21	154.4	1062.94	1010.75	
1332.31	154.3	1083.7	1067.8	
1332.41	154.2	1097.41	1045.59	
1332.51	154.1	1110	1062.13	
1332.61	154	1096.23	1067.91	
1332.71	153.9	1108.52	1070.92	
1332.81	153.8	1096.56	1092.11	
1332.91	153.7	1098.47	1062.2	
1333.01	153.6	1067.26	1096.57	
1333.11	153.5	1065.36	1127.45	
1333.21	153.4	1108.38	1145.23	
1333.31	153.3	1090.04	1123.56	
1333.41	153.2	1097.13	1077.36	
1333.51	153.1	1066.03	1094.8	
1333.61	153	1086.56	1149.28	
1333.71	152.9	1103.63	1108.15	
1333.81	152.8	1102.1	1117.02	
1333.91	152.7	1093.87	1100.67	
1334.01	152.6	1120.86	1065.04	
1334.11	152.5	1087.4	1078.41	
1334.21	152.4	1097.43	1135.03	
1334.31	152.3	1108.12	1117.67	
1334.41	152.2	1095.97	1123.81	
1334.51	152.1	1083.46	1003.93	
1334.61	152	1097.79	1131.71	
1334.71	151.9	1088.53	1092.25	
1334.81	151.8	1088.63	1096.37	
1334.91	151.7	1100.67	1135.16	
1335.01	151.6	1108.72	1110.14	
1335.11	151.5	1122.55	1109.16	
1335.21	151.4	1112.05	1090.1	
1335.31	151.3	1111.12	1074.26	
1335.41	151.2	1102.73	1042.42	
1335.51	151.1	1086.89	1068.09	
1335.61	151	1090.61	1091.33	
1335.71	150.9	1110.88	1067.28	
1335.81	150.8	1144.3	1138.29	
1335.91	150.7	1118.14	1057.06	
1336.01	150.6	1136.53	1074.81	
1336.11	150.5	1121.72	1163.57	
1336.21	150.4	1080.86	1107.72	
1336.31	150.3	1100.81	1069.54	
1336.41	150.2	1101.47	1048.57	
1336.51	150.1	1088.08	1026.25	
1336.61	150	1096.48	1089.07	
1336.71	149.9	1124.41	1112.98	
1336.81	149.8	1111.09	1130.07	
1336.91	149.7	1094.34	1054.68	
1337.01	149.6	1103.85	1095.44	
1337.11	149.5	1106.68	1073.39	
1337.21	149.4	1101.74	1094.03	
1337.31	149.3	1097.91	1182.09	
1337.41	149.2	1106.72	1113.19	
1337.51	149.1	1115.67	1079.64	
1337.61	149	1108.11	1103.3	
1337.71	148.9	1087.8	1065.22	
1337.81	148.8	1107.19	1148.41	
1337.91	148.7	1132.98	1106.7	
1338.01	148.6	1102.85	1093.43	
1338.11	148.5	1075.46	1090.31	
1338.21	148.4	1076.65	1036.87	
1338.31	148.3	1114.08	1124.88	
1338.41	148.2	1098.6	1052.26	
1338.51	148.1	1109.61	1120.85	
1338.61	148	1134.7	1127.56	
1338.71	147.9	1114.13	1064.92	
1338.81	147.8	1130.24	1127.31	
1338.91	147.7	1097.76	1122.1	
1339.01	147.6	1134.12	1149.25	
1339.11	147.5	1113.99	1083.37	
1339.21	147.4	1116.7	1122.37	
1339.31	147.3	1097.97	1049.08	
1339.41	147.2	1092.36	1085.45	
1339.51	147.1	1102.11	1066.82	
1339.61	147	1097.7	1040.47	
1339.71	146.9	1091.82	1091.69	
1339.81	146.8	1114.39	1104.8	
1339.91	146.7	1102.54	1059.02	
1340.01	146.6	1071.22	1184.84	
1340.11	146.5	1109.97	1202.55	
1340.21	146.4	1150.43	1115.68	
1340.31	146.3	1095.43	1124.4	
1340.41	146.2	1107.69	1145.81	
1340.51	146.1	1125.74	1201.95	
1340.61	146	1115.49	1173.02	
1340.71	145.9	1111.2	1064.27	
1340.81	145.8	1098.91	1126.5	
1340.91	145.7	1087.05	1084.39	
1341.01	145.6	1093.64	1069.01	
1341.11	145.5	1126.13	1105.17	
1341.21	145.4	1079.08	1142.62	
1341.31	145.3	1135.44	1206.78	
1341.41	145.2	1102.56	1108.02	
1341.51	145.1	1092.38	1110.71	
1341.61	145	1117.66	1116.63	
1341.71	144.9	1105.22	1123.56	
1341.81	144.8	1101.08	1063.67	
1341.91	144.7	1092.57	1091.9	
1342.01	144.6	1123.73	1151.76	
1342.11	144.5	1108.66	1098.5	
1342.21	144.4	1114.76	1058.82	
1342.31	144.3	1108.74	1055.17	
1342.41	144.2	1109	1118.76	
1342.51	144.1	1117.87	1153.59	
1342.61	144	1119.97	1134.99	
1342.71	143.9	1117.53	1184.83	
1342.81	143.8	1134.67	1072.51	
1342.91	143.7	1130.3	1099.56	
1343.01	143.6	1132.12	1145.62	
1343.11	143.5	1108.19	1151.14	
1343.21	143.4	1124.02	1078.56	
1343.31	143.3	1105.5	1115.35	
1343.41	143.2	1128.37	1161.31	
1343.51	143.1	1142.74	1184.76	
1343.61	143	1109.25	1118.84	
1343.71	142.9	1096.67	1075.47	
1343.81	142.8	1128.45	1087.72	
1343.91	142.7	1122.45	1140.81	
1344.01	142.6	1117.49	1057.88	
1344.11	142.5	1126.79	1048.05	
1344.21	142.4	1135.99	1113.07	
1344.31	142.3	1155.49	1090.65	
1344.41	142.2	1106.29	1106.29	
1344.51	142.1	1106.87	1146.53	
1344.61	142	1143.6	1275.43	
1344.71	141.9	1128.59	1138.35	
1344.81	141.8	1136.31	1166.77	
1344.91	141.7	1145.35	1207.97	
1345.01	141.6	1114	1153.89	
1345.11	141.5	1121.15	1147.72	
1345.21	141.4	1127.55	1153.25	
1345.31	141.3	1110.75	1116.87	
1345.41	141.2	1131.25	1107.11	
1345.51	141.1	1121.65	1094.33	
1345.61	141	1117.23	1125.3	
1345.71	140.9	1142.47	1186.72	
1345.81	140.8	1131.35	1162.29	
1345.91	140.7	1121.86	1124.92	
1346.01	140.6	1135.81	1102.63	
1346.11	140.5	1139.01	1133.94	
1346.21	140.4	1142.41	1205.18	
1346.31	140.3	1141.17	1127.67	
1346.41	140.2	1137.42	1085.58	
1346.51	140.1	1130.45	1067.24	
1346.61	140	1141.13	1179.3	
1346.71	139.9	1155.88	1120.02	
1346.81	139.8	1137.18	1156.73	
1346.91	139.7	1126.39	1099.6	
1347.01	139.6	1117.94	1131.86	
1347.11	139.5	1136.79	1045.66	
1347.21	139.4	1143.5	1060.25	
1347.31	139.3	1130.53	1097.74	
1347.41	139.2	1106.36	1090.64	
1347.51	139.1	1106.05	1132.44	
1347.61	139	1126.85	1166.01	
1347.71	138.9	1130.2	1171.72	
1347.81	138.8	1114.84	1139.84	
1347.91	138.7	1127.4	1171.97	
1348.01	138.6	1157.18	1215.15	
1348.11	138.5	1141.86	1113.01	
1348.21	138.4	1159.17	1212.59	
1348.31	138.3	1160.31	1207.02	
1348.41	138.2	1140.16	1132.26	
1348.51	138.1	1150.84	1176.32	
1348.61	138	1143.81	1222.53	
1348.71	137.9	1129.7	1137.45	
1348.81	137.8	1130.49	1101.33	
1348.91	137.7	1130.25	1085.37	
1349.01	137.6	1143.39	1136.97	
1349.11	137.5	1153.28	1166.28	
1349.21	137.4	1105.35	1082.95	
1349.31	137.3	1126.84	1123.06	
1349.41	137.2	1144.77	1146.51	
1349.51	137.1	1121.76	1053.85	
1349.61	137	1102.03	1013.3	
1349.71	136.9	1133.45	1215.52	
1349.81	136.8	1151.71	1174.5	
1349.91	136.7	1148.7	1119.71	
1350.01	136.6	1124.99	1167.36	
1350.11	136.5	1136.63	1191.62	
1350.21	136.4	1132.12	1088.53	
1350.31	136.3	1163.71	1132.8	
1350.41	136.2	1145.95	1134.58	
1350.51	136.1	1161.24	1199.42	
1350.61	136	1153.94	1158.15	
1350.71	135.9	1163.53	1175.29	
1350.81	135.8	1135.04	1047.07	
1350.91	135.7	1135.62	1163.43	
1351.01	135.6	1175.58	1207.66	
1351.11	135.5	1149.43	1192.84	
1351.21	135.4	1129.05	1194.91	
1351.31	135.3	1130.69	1184.68	
1351.41	135.2	1157.64	1157.79	
1351.51	135.1	1153.85	1195.08	
1351.61	135	1134.27	1175.53	
1351.71	134.9	1119.2	1151.69	
1351.81	134.8	1142.89	1074.76	
1351.91	134.7	1129.34	1061.4	
1352.01	134.6	1145.22	1081.44	
1352.11	134.5	1144.85	1090.18	
1352.21	134.4	1140.09	1152.32	
1352.31	134.3	1140.62	1152.85	
1352.41	134.2	1154.99	1190.82	
1352.51	134.1	1129.7	1144.04	
1352.61	134	1137.6	1135.46	
1352.71	133.9	1145.78	1096.02	
1352.81	133.8	1177.39	1119.26	
1352.91	133.7	1137.55	1126.91	
1353.01	133.6	1116.74	1084.17	
1353.11	133.5	1163.93	1156.43	
1353.21	133.4	1174.38	1201.39	
1353.31	133.3	1167.38	1123.22	
1353.41	133.2	1185.18	1127	
1353.51	133.1	1175.25	1122.25	
1353.61	133	1189.33	1128.16	
1353.71	132.9	1189.21	1185.25	
1353.81	132.8	1174.6	1117.05	
1353.91	132.7	1154.78	1184.61	
1354.01	132.6	1143.97	1215.35	
1354.11	132.5	1147.5	1206.66	
1354.21	132.4	1144.79	1191.63	
1354.31	132.3	1145.4	1167.22	
1354.41	132.2	1147.58	1115.27	
1354.51	132.1	1149.68	1147.56	
1354.61	132	1162.58	1097.4	
1354.71	131.9	1185.57	1099.08	
1354.81	131.8	1144.4	1117.89	
1354.91	131.7	1160.26	1092.63	
1355.01	131.6	1181.36	1156.7	
1355.11	131.5	1161.57	1194.02	
1355.21	131.4	1156.01	1138.66	
1355.31	131.3	1179.79	1190.58	
1355.41	131.2	1155.04	1163.14	
1355.51	131.1	1173.88	1151.86	
1355.61	131	1150.07	1130.4	
1355.71	130.9	1159.29	1144.02	
1355.81	130.8	1161.17	1214.99	
1355.91	130.7	1192.49	1196.53	
1356.01	130.6	1149.96	1130.84	
1356.11	130.5	1162.8	1204.39	
1356.21	130.4	1166.72	1228.7	
1356.31	130.3	1127.55	1133.13	
1356.41	130.2	1133.66	1122.66	
1356.51	130.1	1136.12	1148.42	
1356.61	130	1145.11	1180.39	
1356.66	129.95	1137.78	1168.26	
1356.71	129.9	1149.14	1175.01	
1356.76	129.85	1161.37	1178.05	
1356.81	129.8	1145.42	1150.56	
1356.86	129.75	1126.93	1129.69	
1356.91	129.7	1132.63	1123.84	
1356.96	129.65	1148.72	1155.11	
1357.01	129.6	1142.98	1136.18	
1357.06	129.55	1135.59	1140.12	
1357.11	129.5	1149.6	1164.29	
1357.16	129.45	1143.67	1134.53	
1357.21	129.4	1160	1178.42	
1357.26	129.35	1134.41	1100.68	
1357.31	129.3	1124.82	1117.38	
1357.36	129.25	1141.18	1166.94	
1357.41	129.2	1148.57	1154.92	
1357.46	129.15	1142.74	1150.98	
1357.51	129.1	1158.02	1132.19	
1357.56	129.05	1148.74	1133.42	
1357.61	129	1160.75	1125.71	
1357.66	128.95	1158.93	1167.22	
1357.71	128.9	1165.54	1151.03	
1357.76	128.85	1160.8	1153.75	
1357.81	128.8	1166.01	1188.05	
1357.86	128.75	1147.31	1178.1	
1357.91	128.7	1154.44	1168.61	
1357.96	128.65	1149.55	1132.77	
1358.01	128.6	1141.13	1131.16	
1358.06	128.55	1144.12	1173.75	
1358.11	128.5	1155.02	1191.04	
1358.16	128.45	1154.5	1188.99	
1358.21	128.4	1163.74	1156.45	
1358.26	128.35	1160.03	1142.26	
1358.31	128.3	1166.33	1191.35	
1358.36	128.25	1151.96	1134.48	
1358.41	128.2	1148.32	1142.23	
1358.46	128.15	1153.87	1128	
1358.51	128.1	1142.71	1146.16	
1358.56	128.05	1152.09	1226	
1358.61	128	1140.86	1167.79	
1358.66	127.95	1143.21	1154.36	
1358.71	127.9	1164.63	1190.49	
1358.76	127.85	1175.86	1194.64	
1358.81	127.8	1167.81	1188.8	
1358.86	127.75	1170.99	1169.02	
1358.91	127.7	1155.06	1172.39	
1358.96	127.65	1132.6	1203.97	
1359.01	127.6	1157.12	1160.82	
1359.06	127.55	1167.76	1114.95	
1359.11	127.5	1154.51	1123.33	
1359.16	127.45	1160.63	1131.82	
1359.21	127.4	1153.38	1127.5	
1359.26	127.35	1157.16	1178.6	
1359.31	127.3	1157.36	1109.25	
1359.36	127.25	1151.96	1179.97	
1359.41	127.2	1169.27	1141.21	
1359.46	127.15	1165.33	1173.05	
1359.51	127.1	1152.08	1193.41	
1359.56	127.05	1163.7	1138.46	
1359.61	127	1157.31	1204.53	
1359.66	126.95	1157.63	1187.78	
1359.71	126.9	1155.25	1181.21	
1359.76	126.85	1147.84	1178.32	
1359.81	126.8	1162.87	1178.9	
1359.86	126.75	1162.4	1169.36	
1359.91	126.7	1177.62	1223.49	
1359.96	126.65	1169.71	1175.54	
1360.01	126.6	1157.14	1214.58	
1360.06	126.55	1158.93	1200.66	
1360.11	126.5	1168.33	1155.9	
1360.16	126.45	1153.33	1156.75	
1360.21	126.4	1160.98	1133.81	
1360.26	126.35	1150.12	1182.67	
1360.31	126.3	1150.43	1167.13	
1360.36	126.25	1155.88	1178.68	
1360.41	126.2	1168.93	1155	
1360.46	126.15	1158.14	1160.08	
1360.51	126.1	1164.14	1217.45	
1360.56	126.05	1154.36	1118.85	
1360.61	126	1148.53	1155.46	
1360.66	125.95	1147.57	1125.2	
1360.71	125.9	1153.94	1162.02	
1360.76	125.85	1161.7	1228.04	
1360.81	125.8	1166.35	1145.48	
1360.86	125.75	1172.58	1196.07	
1360.91	125.7	1167.33	1164.16	
1360.96	125.65	1168.29	1175.63	
1361.01	125.6	1178.52	1127.42	
1361.06	125.55	1169.47	1137.67	
1361.11	125.5	1175.11	1179.22	
1361.16	125.45	1154.1	1132.16	
1361.21	125.4	1161.36	1169.07	
1361.26	125.35	1164.5	1164.17	
1361.31	125.3	1173.46	1133.67	
1361.36	125.25	1176.94	1174.34	
1361.41	125.2	1174.43	1160.75	
1361.46	125.15	1165.81	1167.67	
1361.51	125.1	1181.89	1121.74	
1361.56	125.05	1173.75	1178.11	
1361.61	125	1160.06	1150.3	
1361.66	124.95	1156.6	1116.12	
1361.71	124.9	1153.81	1187.45	
1361.76	124.85	1161.45	1163.07	
1361.81	124.8	1161.98	1173.9	
1361.86	124.75	1157.58	1144.19	
1361.91	124.7	1160.77	1197.24	
1361.96	124.65	1163.37	1199.76	
1362.01	124.6	1168.03	1201.06	
1362.06	124.55	1182.87	1197.85	
1362.11	124.5	1170.76	1104.54	
1362.16	124.45	1155.58	1107.05	
1362.21	124.4	1175.84	1138.38	
1362.26	124.35	1163.29	1138.16	
1362.31	124.3	1162.67	1106.75	
1362.36	124.25	1177.87	1152.97	
1362.41	124.2	1168.99	1158.97	
1362.46	124.15	1165.94	1141.85	
1362.51	124.1	1166.14	1174.79	
1362.56	124.05	1162.24	1159.72	
1362.61	124	1170.66	1174.36	
1362.66	123.95	1148.31	1219.4	
1362.71	123.9	1174.59	1179.71	
1362.76	123.85	1171.56	1190.23	
1362.81	123.8	1169.84	1168.96	
1362.86	123.75	1174.9	1180.9	
1362.91	123.7	1152.24	1161.21	
1362.96	123.65	1168.05	1151.62	
1363.01	123.6	1162.45	1137.92	
1363.06	123.55	1168.29	1178.68	
1363.11	123.5	1171.15	1148.06	
1363.16	123.45	1156.18	1163.52	
1363.21	123.4	1162.91	1144.11	
1363.26	123.35	1169.04	1174.72	
1363.31	123.3	1161.96	1140.49	
1363.36	123.25	1179.38	1203.98	
1363.41	123.2	1183.54	1211.02	
1363.46	123.15	1164.42	1134.8	
1363.51	123.1	1171.21	1121.99	
1363.56	123.05	1176.81	1165.51	
1363.61	123	1158.54	1148.8	
1363.66	122.95	1175.53	1142.56	
1363.71	122.9	1156.92	1175.76	
1363.76	122.85	1163.02	1130.05	
1363.81	122.8	1171.65	1197.31	
1363.86	122.75	1177.15	1223.3	
1363.91	122.7	1177.04	1203.27	
1363.96	122.65	1163.37	1144.69	
1364.01	122.6	1183.41	1141.37	
1364.06	122.55	1171.29	1197.89	
1364.11	122.5	1152.43	1136.47	
1364.16	122.45	1162.85	1122.72	
1364.21	122.4	1186.96	1201.37	
1364.26	122.35	1163.52	1188.49	
1364.31	122.3	1158.59	1136.17	
1364.36	122.25	1176.71	1120.07	
1364.41	122.2	1169.43	1145.09	
1364.46	122.15	1164.44	1136.34	
1364.51	122.1	1184.19	1141.49	
1364.56	122.05	1175.19	1152.97	
1364.61	122	1162.1	1178.32	
1364.66	121.95	1174.13	1175.17	
1364.71	121.9	1168.44	1210.5	
1364.76	121.85	1176.39	1171.37	
1364.81	121.8	1173.95	1182.14	
1364.86	121.75	1184.57	1174.73	
1364.91	121.7	1166.98	1230.89	
1364.96	121.65	1174.04	1169.25	
1365.01	121.6	1176.28	1194.74	
1365.06	121.55	1172.7	1177.11	
1365.11	121.5	1164.88	1223.09	
1365.16	121.45	1169.14	1199.24	
1365.21	121.4	1176.81	1218.05	
1365.26	121.35	1186.83	1253.94	
1365.31	121.3	1200.07	1218.24	
1365.36	121.25	1167.32	1159	
1365.41	121.2	1175.55	1155.85	
1365.46	121.15	1174.7	1168.27	
1365.51	121.1	1168.06	1213.97	
1365.56	121.05	1180.06	1229.92	
1365.61	121	1185.5	1203.13	
1365.66	120.95	1183.53	1217.19	
1365.71	120.9	1166.16	1182.67	
1365.76	120.85	1182.98	1218.83	
1365.81	120.8	1196.57	1227.87	
1365.86	120.75	1173.24	1175.18	
1365.91	120.7	1170.42	1179.34	
1365.96	120.65	1181.49	1169.98	
1366.01	120.6	1185.05	1183.27	
1366.06	120.55	1187.83	1141.12	
1366.11	120.5	1184.71	1189.52	
1366.16	120.45	1169.76	1192.48	
1366.21	120.4	1171.66	1172.95	
1366.26	120.35	1193.23	1208.71	
1366.31	120.3	1184.08	1200.63	
1366.36	120.25	1166.18	1152.11	
1366.41	120.2	1200.49	1222.28	
1366.46	120.15	1197.07	1189.11	
1366.51	120.1	1173.66	1174.92	
1366.56	120.05	1177.02	1191.47	
1366.61	120	1191.1	1130.72	
1366.66	119.95	1183.17	1142.79	
1366.71	119.9	1191.73	1166.54	
1366.76	119.85	1182.79	1219.71	
1366.81	119.8	1176.62	1146.81	
1366.86	119.75	1200.96	1198.11	
1366.91	119.7	1174.36	1218.51	
1366.96	119.65	1186.83	1246.41	
1367.01	119.6	1195.51	1160.77	
1367.06	119.55	1188.31	1219.1	
1367.11	119.5	1165.23	1173.2	
1367.16	119.45	1177.73	1156.24	
1367.21	119.4	1204.45	1240.5	
1367.26	119.35	1184.23	1130.91	
1367.31	119.3	1198.07	1244.17	
1367.36	119.25	1183.06	1193.46	
1367.41	119.2	1180.69	1178.42	
1367.46	119.15	1184.77	1173.84	
1367.51	119.1	1192.22	1181.82	
1367.56	119.05	1166.98	1158.85	
1367.61	119	1182.86	1196.56	
1367.66	118.95	1189.62	1206.46	
1367.71	118.9	1222.56	1246.1	
1367.76	118.85	1185.8	1183.92	
1367.81	118.8	1194.74	1174.17	
1367.86	118.75	1186.83	1097.77	
1367.91	118.7	1175.19	1156.95	
1367.96	118.65	1165.83	1147.75	
1368.01	118.6	1179.36	1170.62	
1368.06	118.55	1193.38	1089.7	
1368.11	118.5	1181.02	1133.76	
1368.16	118.45	1220.22	1215.65	
1368.21	118.4	1208.38	1168.61	
1368.26	118.35	1186.65	1176.33	
1368.31	118.3	1183.3	1140.04	
1368.36	118.25	1201.6	1203.21	
1368.41	118.2	1189.3	1181.39	
1368.46	118.15	1200.22	1176.42	
1368.51	118.1	1188.8	1174.59	
1368.56	118.05	1185	1148.38	
1368.61	118	1180.81	1149.87	
1368.66	117.95	1182.63	1182.28	
1368.71	117.9	1188.1	1191.76	
1368.76	117.85	1178.21	1153.31	
1368.81	117.8	1206.26	1231.53	
1368.86	117.75	1213.49	1253.21	
1368.91	117.7	1186.19	1164.28	
1368.96	117.65	1186.44	1197.29	
1369.01	117.6	1179.06	1191.43	
1369.06	117.55	1189.98	1169.38	
1369.11	117.5	1187.58	1131.86	
1369.16	117.45	1182.29	1147.39	
1369.21	117.4	1199.4	1108.71	
1369.26	117.35	1180.96	1159.04	
1369.31	117.3	1177.17	1205.16	
1369.36	117.25	1166.74	1192.99	
1369.41	117.2	1187.33	1153.66	
1369.46	117.15	1201.19	1208.03	
1369.51	117.1	1193.37	1196.93	
1369.56	117.05	1178.58	1189.8	
1369.61	117	1180.89	1167.02	
1369.66	116.95	1186.23	1138.94	
1369.71	116.9	1175.97	1138.16	
1369.76	116.85	1196.82	1192.93	
1369.81	116.8	1179.46	1140.97	
1369.86	116.75	1211.6	1198.15	
1369.91	116.7	1194.29	1156.84	
1369.96	116.65	1192.53	1207.06	
1370.01	116.6	1206.12	1164	
1370.06	116.55	1196.1	1167.07	
1370.11	116.5	1192.04	1170.48	
1370.16	116.45	1196.38	1165.46	
1370.21	116.4	1194.58	1170.92	
1370.26	116.35	1205.73	1190.01	
1370.31	116.3	1210.52	1189.38	
1370.36	116.25	1213.22	1168.92	
1370.41	116.2	1205.25	1186.28	
1370.46	116.15	1193.8	1225.34	
1370.51	116.1	1177.21	1187.77	
1370.56	116.05	1184.14	1215.49	
1370.61	116	1197.09	1239.43	
1370.66	115.95	1205.98	1233.51	
1370.71	115.9	1189.56	1162.1	
1370.76	115.85	1188.12	1175.87	
1370.81	115.8	1207.28	1153.84	
1370.86	115.75	1211.92	1160.92	
1370.91	115.7	1227.13	1204.68	
1370.96	115.65	1215.98	1196.69	
1371.01	115.6	1209.67	1196.67	
1371.06	115.55	1207.37	1114.3	
1371.11	115.5	1183.27	1215.65	
1371.16	115.45	1176.29	1241.49	
1371.21	115.4	1196.6	1161.34	
1371.26	115.35	1203.08	1192.25	
1371.31	115.3	1198.13	1209.98	
1371.36	115.25	1210.66	1164.71	
1371.41	115.2	1196.67	1155.58	
1371.46	115.15	1199.45	1213.28	
1371.51	115.1	1201.26	1258.3	
1371.56	115.05	1208.54	1194.77	
1371.61	115	1198.2	1245.16	
1371.66	114.95	1187.97	1207.06	
1371.71	114.9	1206.86	1165.53	
1371.76	114.85	1184.59	1196.7	
1371.81	114.8	1207.29	1175.92	
1371.86	114.75	1201.54	1146.78	
1371.91	114.7	1226.1	1219.31	
1371.96	114.65	1216.61	1139.19	
1372.01	114.6	1207.38	1227.95	
1372.06	114.55	1198.56	1231.41	
1372.11	114.5	1201.34	1234.87	
1372.16	114.45	1205.87	1210.59	
1372.21	114.4	1190.96	1116.71	
1372.26	114.35	1201.19	1178.63	
1372.31	114.3	1199.69	1214.76	
1372.36	114.25	1217.91	1195.53	
1372.41	114.2	1228.55	1218.68	
1372.46	114.15	1212.35	1257.68	
1372.51	114.1	1204.45	1232.73	
1372.56	114.05	1215.72	1210.22	
1372.61	114	1225.35	1226.57	
1372.66	113.95	1227.37	1156.3	
1372.71	113.9	1223.08	1221.49	
1372.76	113.85	1222.62	1260.66	
1372.81	113.8	1217.09	1222.82	
1372.86	113.75	1222.84	1236.02	
1372.91	113.7	1217.31	1222.78	
1372.96	113.65	1216.77	1208.98	
1373.01	113.6	1196.1	1242.34	
1373.06	113.55	1208.48	1229.39	
1373.11	113.5	1202.35	1201.87	
1373.16	113.45	1206.55	1233.02	
1373.21	113.4	1210.72	1190.67	
1373.26	113.35	1229.92	1283.85	
1373.31	113.3	1212.47	1266	
1373.36	113.25	1222.36	1232.28	
1373.41	113.2	1231.96	1267.4	
1373.46	113.15	1226.55	1264.35	
1373.51	113.1	1226.75	1260.2	
1373.56	113.05	1210.26	1227.94	
1373.61	113	1227.57	1293.19	
1373.66	112.95	1219.38	1257.55	
1373.71	112.9	1232.47	1202.65	
1373.76	112.85	1243.42	1247.6	
1373.81	112.8	1238.4	1219.39	
1373.86	112.75	1237.38	1243.68	
1373.91	112.7	1251.8	1127.9	
1373.96	112.65	1242.36	1273.34	
1374.01	112.6	1236.6	1245.69	
1374.06	112.55	1230.74	1252.99	
1374.11	112.5	1233.08	1246.78	
1374.16	112.45	1246.08	1239.03	
1374.21	112.4	1245.87	1275.04	
1374.26	112.35	1245.22	1291.46	
1374.31	112.3	1228.5	1216.97	
1374.36	112.25	1235.58	1227.26	
1374.41	112.2	1244.63	1258.22	
1374.46	112.15	1240.56	1252.3	
1374.51	112.1	1239.23	1236.66	
1374.56	112.05	1241.15	1251.19	
1374.61	112	1259.03	1326.1	
1374.66	111.95	1218.91	1212.43	
1374.71	111.9	1231.4	1181.52	
1374.76	111.85	1256.06	1223.67	
1374.81	111.8	1238.4	1261.55	
1374.86	111.75	1237.37	1196.75	
1374.91	111.7	1230.48	1217.05	
1374.96	111.65	1254.69	1278	
1375.01	111.6	1237.01	1226.94	
1375.06	111.55	1245.47	1244.69	
1375.11	111.5	1250.15	1233.24	
1375.16	111.45	1255.78	1273.5	
1375.21	111.4	1236.89	1215.89	
1375.26	111.35	1242.25	1216.95	
1375.31	111.3	1240.07	1212.87	
1375.36	111.25	1238.73	1262.18	
1375.41	111.2	1241.86	1230.75	
1375.46	111.15	1242.36	1205.11	
1375.51	111.1	1228.75	1190.22	
1375.56	111.05	1232.59	1213.24	
1375.61	111	1238.94	1248.63	
1375.66	110.95	1232.96	1252.18	
1375.71	110.9	1244.21	1245.54	
1375.76	110.85	1246.49	1258.27	
1375.81	110.8	1235.86	1268.49	
1375.86	110.75	1239.59	1280.14	
1375.91	110.7	1231.8	1276.95	
1375.96	110.65	1233.17	1230.23	
1376.01	110.6	1237.66	1185.07	
1376.06	110.55	1249.41	1245.22	
1376.11	110.5	1229.37	1240.86	
1376.16	110.45	1238.69	1228.09	
1376.21	110.4	1252.08	1221.72	
1376.26	110.35	1240.95	1232.03	
1376.31	110.3	1232.74	1220.52	
1376.36	110.25	1231.8	1281.29	
1376.41	110.2	1227.75	1252.85	
1376.46	110.15	1263.39	1260.75	
1376.51	110.1	1248.1	1257.39	
1376.56	110.05	1252.7	1309.61	
1376.61	110	1235.33	1261.95	
1376.66	109.95	1251.26	1236.04	
1376.71	109.9	1242.44	1239.86	
1376.76	109.85	1250.23	1251.16	
1376.81	109.8	1252.93	1230.51	
1376.86	109.75	1243.06	1231.68	
1376.91	109.7	1248.24	1266.85	
1376.96	109.65	1240.36	1202.78	
1377.01	109.6	1244.87	1222.78	
1377.06	109.55	1248.35	1200.87	
1377.11	109.5	1244.46	1231.51	
1377.16	109.45	1252.1	1215.34	
1377.21	109.4	1240.47	1219.8	
1377.26	109.35	1224.78	1161.47	
1377.31	109.3	1228.71	1214.47	
1377.36	109.25	1237.98	1267.63	
1377.41	109.2	1235.99	1285.01	
1377.46	109.15	1230.88	1248.89	
1377.51	109.1	1256.72	1282.89	
1377.56	109.05	1259.97	1268.68	
1377.61	109	1249.51	1253.76	
1377.66	108.95	1242.52	1270.77	
1377.71	108.9	1229.37	1242.81	
1377.76	108.85	1220.8	1186.64	
1377.81	108.8	1230.33	1251.79	
1377.86	108.75	1234.31	1264.74	
1377.91	108.7	1225.75	1290.93	
1377.96	108.65	1208.49	1248.56	
1378.01	108.6	1222.96	1266.95	
1378.06	108.55	1237.83	1208.85	
1378.11	108.5	1236.18	1224.05	
1378.16	108.45	1246.26	1247.76	
1378.21	108.4	1235.41	1235.1	
1378.26	108.35	1228.86	1227.82	
1378.31	108.3	1242.43	1250.34	
1378.36	108.25	1224.34	1211.72	
1378.41	108.2	1227.21	1224.71	
1378.46	108.15	1228.64	1233.74	
1378.51	108.1	1241.93	1234.93	
1378.56	108.05	1250.39	1244.32	
1378.61	108	1246.54	1298.22	
1378.66	107.95	1253.26	1205.51	
1378.71	107.9	1240.16	1251.19	
1378.76	107.85	1229.65	1238.34	
1378.81	107.8	1223.23	1235.14	
1378.86	107.75	1227.04	1242.75	
1378.91	107.7	1219.91	1182	
1378.96	107.65	1213.49	1165.91	
1379.01	107.6	1243.44	1218.12	
1379.06	107.55	1230.16	1250.43	
1379.11	107.5	1236.31	1185.11	
1379.16	107.45	1237.11	1208.02	
1379.21	107.4	1232.06	1214.56	
1379.26	107.35	1225.08	1238.27	
1379.31	107.3	1223.25	1227.19	
1379.36	107.25	1209.18	1196.83	
1379.41	107.2	1208.99	1224.32	
1379.46	107.15	1210.28	1237.18	
1379.51	107.1	1224.5	1259.55	
1379.56	107.05	1242.99	1236.34	
1379.61	107	1225.8	1259.56	
1379.66	106.95	1210.57	1198.32	
1379.71	106.9	1195.24	1208.14	
1379.76	106.85	1235.31	1277.64	
1379.81	106.8	1207.66	1222.05	
1379.86	106.75	1200.12	1179.89	
1379.91	106.7	1215.16	1183.83	
1379.96	106.65	1229.28	1236.17	
1380.01	106.6	1216.9	1232.3	
1380.06	106.55	1200.4	1179.63	
1380.11	106.5	1221.24	1228.93	
1380.16	106.45	1221.25	1242.28	
1380.21	106.4	1204.75	1262.13	
1380.26	106.35	1175.2	1189.83	
1380.31	106.3	1207.76	1239.84	
1380.36	106.25	1201.81	1153.31	
1380.41	106.2	1217.18	1203.71	
1380.46	106.15	1200.18	1225.7	
1380.51	106.1	1199.71	1201.25	
1380.56	106.05	1185.45	1190.58	
1380.61	106	1193.8	1141.89	
1380.66	105.95	1205.53	1191.18	
1380.71	105.9	1197.91	1212.58	
1380.76	105.85	1220.86	1203.29	
1380.81	105.8	1193.96	1181.72	
1380.86	105.75	1185.73	1178.76	
1380.91	105.7	1217.19	1187.68	
1380.96	105.65	1214.83	1189.03	
1381.01	105.6	1210.54	1203.4	
1381.06	105.55	1202.85	1230.97	
1381.11	105.5	1210.38	1173.87	
1381.16	105.45	1201.77	1223.2	
1381.21	105.4	1212.92	1227.93	
1381.26	105.35	1213.89	1202.92	
1381.31	105.3	1226.96	1216.3	
1381.36	105.25	1195.48	1247.87	
1381.41	105.2	1202.36	1194.47	
1381.46	105.15	1223.48	1243.76	
1381.51	105.1	1214.74	1248.92	
1381.56	105.05	1195.77	1170.35	
1381.61	105	1227.84	1198.64	
1381.66	104.95	1218.44	1245.83	
1381.71	104.9	1206.58	1205.59	
1381.76	104.85	1206.68	1212.66	
1381.81	104.8	1208.85	1209.07	
1381.86	104.75	1199.86	1147.7	
1381.91	104.7	1192.72	1147.91	
1381.96	104.65	1201.98	1160.91	
1382.01	104.6	1221.5	1171.77	
1382.06	104.55	1220.91	1210.7	
1382.11	104.5	1203.43	1211.63	
1382.16	104.45	1202.53	1220.67	
1382.21	104.4	1207.84	1168.57	
1382.26	104.35	1182.94	1136.66	
1382.31	104.3	1194.41	1206.32	
1382.36	104.25	1174.93	1146.46	
1382.41	104.2	1206.22	1166.45	
1382.46	104.15	1215.16	1179.79	
1382.51	104.1	1205.39	1167.98	
1382.56	104.05	1194.98	1214.33	
1382.61	104	1199.82	1226.68	
1382.66	103.95	1177.31	1167.86	
1382.71	103.9	1192.59	1201.7	
1382.76	103.85	1178.48	1174.65	
1382.81	103.8	1205.05	1191.24	
1382.86	103.75	1181.94	1124.39	
1382.91	103.7	1187.32	1142.91	
1382.96	103.65	1195.38	1175.06	
1383.01	103.6	1206.54	1183.81	
1383.06	103.55	1222.92	1230.03	
1383.11	103.5	1206.53	1220.68	
1383.16	103.45	1232.82	1199.95	
1383.21	103.4	1216.33	1185.29	
1383.26	103.35	1205.83	1192.56	
1383.31	103.3	1209.65	1228.54	
1383.36	103.25	1210.99	1186.04	
1383.41	103.2	1212.65	1208.8	
1383.46	103.15	1206.93	1191.19	
1383.51	103.1	1205.2	1223.61	
1383.56	103.05	1203.61	1221.58	
1383.61	103	1208.23	1173.71	
1383.66	102.95	1199.38	1193.78	
1383.71	102.9	1192.06	1201.23	
1383.76	102.85	1179.12	1162.59	
1383.81	102.8	1179.96	1127.94	
1383.86	102.75	1163.65	1130.03	
1383.91	102.7	1153.62	1161.71	
1383.96	102.65	1165.24	1179.66	
1384.01	102.6	1151.06	1171.42	
1384.06	102.55	1145.49	1162.65	
1384.11	102.5	1139.12	1171.59	
1384.16	102.45	1120.6	1134.68	
1384.21	102.4	1122.56	1130.9	
1384.26	102.35	1133.64	1186.96	
1384.31	102.3	1108.76	1160.84	
1384.36	102.25	1130.59	1158.02	
1384.41	102.2	1132.48	1138.33	
1384.46	102.15	1122.72	1103.23	
1384.51	102.1	1109.54	1069.74	
1384.56	102.05	1138.77	1121.16	
1384.61	102	1125.07	1114.25	
1384.66	101.95	1116.02	1149	
1384.71	101.9	1119.72	1116.69	
1384.76	101.85	1146.48	1148.61	
1384.81	101.8	1125.39	1131.78	
1384.86	101.75	1136.83	1198.15	
1384.91	101.7	1130.41	1099.03	
1384.96	101.65	1138.79	1117.9	
1385.01	101.6	1143.36	1136.73	
1385.06	101.55	1139.04	1123.68	
1385.11	101.5	1142.72	1099.1	
1385.16	101.45	1125.25	1175.77	
1385.21	101.4	1159.84	1218.75	
1385.26	101.35	1146.23	1134.93	
1385.31	101.3	1145.24	1117.37	
1385.36	101.25	1145.24	1101.53	
1385.41	101.2	1161.43	1170.74	
1385.46	101.15	1155.88	1166	
1385.51	101.1	1146.98	1172.05	
1385.56	101.05	1166.49	1154.71	
1385.61	101	1159.8	1226.14	
1385.66	100.95	1142.52	1192.18	
1385.71	100.9	1154.64	1124.61	
1385.76	100.85	1126.95	1100.75	
1385.81	100.8	1116.62	1078.11	
1385.86	100.75	1132.73	1118.34	
1385.91	100.7	1135.12	1158.6	
1385.96	100.65	1118.38	1128.35	
1386.01	100.6	1126.57	1113.47	
1386.06	100.55	1103.11	1114.19	
1386.11	100.5	1087.02	1098.68	
1386.16	100.45	1105.19	1082.97	
1386.21	100.4	1095.7	1121.22	
1386.26	100.35	1078.12	1135.38	
1386.31	100.3	1085.83	1127.1	
1386.36	100.25	1093.16	1124.28	
1386.41	100.2	1085.59	1060.3	
1386.46	100.15	1085.49	1086.02	
1386.51	100.1	1088.17	1065.09	
1386.56	100.05	1078.99	1080.95	
1386.61	100	1069.53	1073.23	
1386.66	99.95	1064.68	1026.84	
1386.71	99.9	1058.91	1027.07	
1386.76	99.85	1050.74	1043.44	
1386.81	99.8	1068.86	1061.05	
1386.86	99.75	1078.35	1124.43	
1386.91	99.7	1068.77	1112.7	
1386.96	99.65	1062.75	1086.06	
1387.01	99.6	1074.28	1088.42	
1387.06	99.55	1088.31	1044.1	
1387.11	99.5	1090.37	1052.88	
1387.16	99.45	1074.96	1082.23	
1387.21	99.4	1075.85	1069.36	
1387.26	99.35	1068.34	1069.92	
1387.31	99.3	1040.66	1076.06	
1387.36	99.25	1052.33	1014.5	
1387.41	99.2	1045.19	1003.81	
1387.46	99.15	1035.68	1062.13	
1387.51	99.1	1032.43	1012.09	
1387.56	99.05	1029.79	1049.12	
1387.61	99	1017.71	999.994	
1387.66	98.95	1002.99	996.661	
1387.71	98.9	1009.22	985.98	
1387.76	98.85	990.43	1002.23	
1387.81	98.8	990.978	981.39	
1387.86	98.75	982.136	960.92	
1387.91	98.7	979.686	954.516	
1387.96	98.65	968.722	994.086	
1388.01	98.6	974.001	985.294	
1388.06	98.55	980.124	961.794	
1388.11	98.5	974.191	940.326	
1388.16	98.45	971.788	978.164	
1388.21	98.4	948.509	929.979	
1388.26	98.35	936.955	953.554	
1388.31	98.3	938.924	982.805	
1388.36	98.25	944.547	960.252	
1388.41	98.2	949.977	920.971	
1388.46	98.15	950.51	982.961	
1388.51	98.1	953.718	948.337	
1388.56	98.05	963.221	939.063	
1388.61	98	969.205	931.912	
1388.66	97.95	948.379	951.974	
1388.71	97.9	940.002	943.685	
1388.76	97.85	932.506	930.932	
1388.81	97.8	958.175	960.074	
1388.86	97.75	961.028	968.501	
1388.91	97.7	969.27	987.062	
1388.96	97.65	956.776	986.5	
1389.01	97.6	947.918	961.644	
1389.06	97.55	935.232	945.595	
1389.11	97.5	929.67	951.93	
1389.16	97.45	960.747	1003.35	
1389.21	97.4	955.263	1001.78	
1389.26	97.35	957.013	954.73	
1389.31	97.3	970.56	995.619	
1389.36	97.25	982.552	977.106	
1389.41	97.2	970.323	948.249	
1389.46	97.15	982.221	1002.12	
1389.51	97.1	989.434	1037.79	
1389.56	97.05	977.35	1009.14	
1389.61	97	970.75	1013.19	
1389.66	96.95	1002.41	1027.72	
1389.71	96.9	998.806	982.92	
1389.76	96.85	1002.49	978.986	
1389.81	96.8	1006.4	999.619	
1389.86	96.75	1008.47	986.522	
1389.91	96.7	1013.43	1033.79	
1389.96	96.65	1009.51	1032.11	
1390.01	96.6	1011.66	1003.25	
1390.06	96.55	1016.87	1010.48	
1390.11	96.5	1021.35	1044.14	
1390.16	96.45	1009.98	1026.54	
1390.21	96.4	1003.88	1017.26	
1390.26	96.35	994.927	1010.27	
1390.31	96.3	992.997	1021.89	
1390.36	96.25	986.03	997.477	
1390.41	96.2	984.945	964.18	
1390.46	96.15	960.331	946.165	
1390.51	96.1	957.046	964.136	
1390.56	96.05	976.817	990.79	
1390.61	96	963.368	978.689	
1390.66	95.95	949.675	925.352	
1390.71	95.9	953.687	985.421	
1390.76	95.85	944.925	898.081	
1390.81	95.8	924.363	895.002	
1390.86	95.75	914.878	917.6	
1390.91	95.7	894.889	914.141	
1390.96	95.65	897.918	914.695	
1391.01	95.6	894.903	903.237	
1391.06	95.55	907.586	910.356	
1391.11	95.5	882.383	885.566	
1391.16	95.45	871.173	853.58	
1391.21	95.4	858.816	860.884	
1391.26	95.35	848.249	844.815	
1391.31	95.3	840.816	897.904	
1391.36	95.25	835.243	866.947	
1391.41	95.2	845.24	841.506	
1391.46	95.15	839.43	828.345	
1391.51	95.1	838.888	835.64	
1391.56	95.05	826.042	829.607	
1391.61	95	827.007	872.326	
1391.66	94.95	831.459	836.41	
1391.71	94.9	823.303	847.195	
1391.76	94.85	826.695	815.909	
1391.81	94.8	823.758	807.304	
1391.86	94.75	802.821	825.574	
1391.91	94.7	820.754	831.256	
1391.96	94.65	801.33	821.961	
1392.01	94.6	812.657	837.777	
1392.06	94.55	818.047	838.864	
1392.11	94.5	814.45	797.782	
1392.16	94.45	824.957	797.381	
1392.21	94.4	807.8	801.262	
1392.26	94.35	802.783	839.962	
1392.31	94.3	817.151	816.262	
1392.36	94.25	812.336	814.099	
1392.41	94.2	803.703	796.825	
1392.46	94.15	805.258	828.899	
1392.51	94.1	827.952	838.487	
1392.56	94.05	834.826	819.295	
1392.61	94	828.631	798.676	
1392.66	93.95	841.147	846.864	
1392.71	93.9	828.341	864.151	
1392.76	93.85	821.618	822.029	
1392.81	93.8	842.144	853.871	
1392.86	93.75	821.204	828.808	
1392.91	93.7	833.619	805.673	
1392.96	93.65	819.715	860.9	
1393.01	93.6	834.747	844.758	
1393.06	93.55	849.156	822.163	
1393.11	93.5	841.101	840.408	
1393.16	93.45	868.523	865.875	
1393.21	93.4	868.055	882.751	
1393.26	93.35	877.56	933.96	
1393.31	93.3	884.927	915.087	
1393.36	93.25	906.498	856.816	
1393.41	93.2	908.549	868.293	
1393.46	93.15	919.104	946.117	
1393.51	93.1	931.148	924.821	
1393.56	93.05	936.861	918.87	
1393.61	93	943.419	941.414	
1393.66	92.95	944.379	937.08	
1393.71	92.9	948.877	952.366	
1393.76	92.85	969.337	953.497	
1393.81	92.8	992.269	963.959	
1393.86	92.75	982.841	1004.15	
1393.91	92.7	984.743	959.237	
1393.96	92.65	957.037	958.215	
1394.01	92.6	955.319	1002.26	
1394.06	92.55	972.864	974.321	
1394.11	92.5	972.384	956.191	
1394.16	92.45	982.561	966.982	
1394.21	92.4	975.81	979.456	
1394.26	92.35	964.915	959.28	
1394.31	92.3	966.281	937.409	
1394.36	92.25	952.79	964.102	
1394.41	92.2	945.225	899.928	
1394.46	92.15	921.053	889.699	
1394.51	92.1	907.173	905.293	
1394.56	92.05	909.164	917.221	
1394.61	92	902.684	888.397	
1394.66	91.95	899.258	929.414	
1394.71	91.9	878.957	868.757	
1394.76	91.85	873.447	874.934	
1394.81	91.8	882.578	917.472	
1394.86	91.75	875.742	909.407	
1394.91	91.7	861.784	859.797	
1394.96	91.65	832.736	833.662	
1395.01	91.6	847.171	835.08	
1395.06	91.55	826.965	807.712	
1395.11	91.5	838.287	813.232	
1395.16	91.45	811.349	791.161	
1395.21	91.4	812.009	795.957	
1395.26	91.35	809.212	811.915	
1395.31	91.3	823.721	814.63	
1395.36	91.25	798.94	765.365	
1395.41	91.2	802.598	808.176	
1395.46	91.15	805.572	820.83	
1395.51	91.1	796.928	807.763	
1395.56	91.05	824.77	797.156	
1395.61	91	816.975	781.499	
1395.66	90.95	821.753	821.642	
1395.71	90.9	799.037	793.639	
1395.76	90.85	821.632	822.215	
1395.81	90.8	819.804	791.557	
1395.86	90.75	826.739	810.024	
1395.91	90.7	819.157	836.663	
1395.96	90.65	821.856	844.42	
1396.01	90.6	849.818	866.05	
1396.06	90.55	820.848	811.99	
1396.11	90.5	823.067	785.869	
1396.16	90.45	844.055	857.805	
1396.21	90.4	843.336	836.901	
1396.26	90.35	833.511	820.602	
1396.31	90.3	826.561	770.444	
1396.36	90.25	838.2	841.227	
1396.41	90.2	838.142	848.485	
1396.46	90.15	845.56	859.387	
1396.51	90.1	843.608	844.665	
1396.56	90.05	859.745	837.154	
1396.61	90	848.725	884.767	
1396.66	89.95	843.747	814.784	
1396.71	89.9	850.198	843.556	
1396.76	89.85	832.435	823.533	
1396.81	89.8	846.778	823.621	
1396.86	89.75	866.646	875.354	
1396.91	89.7	880.415	863.465	
1396.96	89.65	863.825	838.801	
1397.01	89.6	889.593	836.009	
1397.06	89.55	889.502	842.997	
1397.11	89.5	892.791	896.845	
1397.16	89.45	899.257	916.207	
1397.21	89.4	930.088	871.54	
1397.26	89.35	960.794	962.921	
1397.31	89.3	966.191	965.77	
1397.36	89.25	982.217	944.909	
1397.41	89.2	998.283	952.059	
1397.46	89.15	1046.9	1060.87	
1397.51	89.1	1080.11	1097.65	
1397.56	89.05	1105.39	1122.91	
1397.61	89	1152.44	1133.45	
1397.66	88.95	1191.38	1173.41	
1397.71	88.9	1270.5	1204.89	
1397.76	88.85	1295.81	1289.81	
1397.81	88.8	1351.32	1318.09	
1397.86	88.75	1440.86	1499.28	
1397.91	88.7	1522.07	1543.27	
1397.96	88.65	1651.09	1667.22	
1398.01	88.6	1811.75	1800.46	
1398.06	88.55	1916.62	1930.61	
1398.11	88.5	2114.14	2102.34	
1398.16	88.45	2349.2	2335.71	
1398.21	88.4	2617.33	2558.69	
1398.26	88.35	2880.84	2826.95	
1398.31	88.3	3185.65	3200.72	
1398.36	88.25	3545.67	3546.86	
1398.41	88.2	3948.34	3835.65	
1398.46	88.15	4379.71	4270.7	
1398.51	88.1	4838.91	4770.43	
1398.56	88.05	5368.22	5378.25	
1398.61	88	5799.42	5866.15	
1398.66	87.95	6304.77	6399.91	
1398.71	87.9	6764.1	6792.74	
1398.76	87.85	7132.66	7092.79	
1398.81	87.8	7330.98	7341.49	
1398.86	87.75	7426.14	7423.32	
1398.91	87.7	7321.26	7329.42	
1398.96	87.65	7137.72	7138.95	
1399.01	87.6	6733.82	6796.15	
1399.06	87.55	6222.41	6200.15	
1399.11	87.5	5694.36	5648.69	
1399.16	87.45	5117.68	5166.55	
1399.21	87.4	4533.95	4521.25	
1399.26	87.35	3967.28	3997.76	
1399.31	87.3	3489.64	3444.47	
1399.36	87.25	3058.51	3035.43	
1399.41	87.2	2676.35	2635.7	
1399.46	87.15	2364.47	2289.85	
1399.51	87.1	2072.03	2014.19	
1399.56	87.05	1850.67	1824.81	
1399.61	87	1647.61	1600.61	
1399.66	86.95	1519.49	1438.77	
1399.71	86.9	1400.7	1353.54	
1399.76	86.85	1260.4	1250.69	
1399.81	86.8	1202.29	1198.76	
1399.86	86.75	1120.61	1118.8	
1399.91	86.7	1061.59	1047.15	
1399.96	86.65	1022.06	999.262	
1400.01	86.6	969.258	985.537	
1400.06	86.55	967.947	922.639	
1400.11	86.5	936.46	933.87	
1400.16	86.45	903.666	918.441	
1400.21	86.4	867.29	907.029	
1400.26	86.35	831.155	856.746	
1400.31	86.3	821.509	841.73	
1400.36	86.25	825.95	838.405	
1400.41	86.2	819.696	854.561	
1400.46	86.15	804.796	809.553	
1400.51	86.1	809.816	786.604	
1400.56	86.05	794.707	768.91	
1400.61	86	798.499	807.161	
1400.66	85.95	808.777	785.844	
1400.71	85.9	814.825	828.477	
1400.76	85.85	826.275	811.482	
1400.81	85.8	819.99	811.607	
1400.86	85.75	845.938	902.316	
1400.91	85.7	846.848	886.74	
1400.96	85.65	866.034	847.818	
1401.01	85.6	898.422	876.787	
1401.06	85.55	910.112	886.727	
1401.11	85.5	923.342	931.121	
1401.16	85.45	977.105	977.676	
1401.21	85.4	984.952	995.678	
1401.26	85.35	1042.59	1040.02	
1401.31	85.3	1097.71	1145.93	
1401.36	85.25	1144.76	1203.35	
1401.41	85.2	1236.55	1212.5	
1401.46	85.15	1307.19	1321.3	
1401.51	85.1	1385.6	1433.06	
1401.56	85.05	1504.41	1502.55	
1401.61	85	1617.43	1595.84	
1401.66	84.95	1784.51	1822.95	
1401.71	84.9	1953.59	1977.54	
1401.76	84.85	2169.39	2144.88	
1401.81	84.8	2414.7	2398.4	
1401.86	84.75	2713.21	2720.89	
1401.91	84.7	3060.02	3028.53	
1401.96	84.65	3449.24	3415.6	
1402.01	84.6	3855.84	3866.29	
1402.06	84.55	4347.21	4372.31	
1402.11	84.5	4877.55	4888.25	
1402.16	84.45	5456.84	5557.3	
1402.21	84.4	6085.95	6145.95	
1402.26	84.35	6760.76	6792.95	
1402.31	84.3	7468.09	7393.07	
1402.36	84.25	8046.03	8091.86	
1402.41	84.2	8569.58	8583.46	
1402.46	84.15	9004.67	8994.06	
1402.51	84.1	9233.34	9251.82	
1402.56	84.05	9202.32	9094.49	
1402.61	84	9009.92	9154.76	
1402.66	83.95	8572.54	8675.14	
1402.71	83.9	8031.4	7930.27	
1402.76	83.85	7311.62	7252.15	
1402.81	83.8	6471.96	6451.24	
1402.86	83.75	5723.37	5743.06	
1402.91	83.7	5008.69	4934.59	
1402.96	83.65	4311.04	4350.71	
1403.01	83.6	3679.09	3696.29	
1403.06	83.55	3107.54	3157.34	
1403.11	83.5	2699.58	2716.32	
1403.16	83.45	2292.13	2253.81	
1403.21	83.4	1947.35	1888.57	
1403.26	83.35	1678.08	1658.34	
1403.31	83.3	1465.63	1465.14	
1403.36	83.25	1280.58	1308.65	
1403.41	83.2	1129.88	1119.7	
1403.46	83.15	1010.22	980.725	
1403.51	83.1	900.087	918.335	
1403.56	83.05	822.698	845.224	
1403.61	83	754.608	760.895	
1403.66	82.95	692.962	737.006	
1403.71	82.9	661.72	688.01	
1403.76	82.85	622.198	593.641	
1403.81	82.8	585.078	564.254	
1403.86	82.75	555.151	549.077	
1403.91	82.7	517.59	527.862	
1403.96	82.65	497.18	500.205	
1404.01	82.6	467.224	470.941	
1404.06	82.55	458.275	494.086	
1404.11	82.5	442.906	446.865	
1404.16	82.45	431.985	431.127	
1404.21	82.4	409.759	442.14	
1404.26	82.35	403.177	419.279	
1404.31	82.3	380.981	388.672	
1404.36	82.25	384.224	356.975	
1404.41	82.2	378.385	370.914	
1404.46	82.15	370.322	388.706	
1404.51	82.1	358.429	362.544	
1404.56	82.05	358.659	359.671	
1404.61	82	353.091	369.746	
1404.66	81.95	342.64	331.354	
1404.71	81.9	342.553	328.574	
1404.76	81.85	345.731	350.64	
1404.81	81.8	321.833	332.75	
1404.86	81.75	315.297	327.859	
1404.91	81.7	313.992	308.916	
1404.96	81.65	315.562	350.33	
1405.01	81.6	307.586	320.159	
1405.06	81.55	301.532	317.871	
1405.11	81.5	295.866	326.7	
1405.16	81.45	306.897	325.168	
1405.21	81.4	304.508	336.049	
1405.26	81.35	290.281	308.659	
1405.31	81.3	290.129	266.455	
1405.36	81.25	290.743	289.201	
1405.41	81.2	290.498	287.079	
1405.46	81.15	289.977	293.693	
1405.51	81.1	295.252	284.732	
1405.56	81.05	286.939	286.486	
1405.61	81	282.162	287.76	
1405.66	80.95	275.502	283.106	
1405.71	80.9	274.284	290.417	
1405.76	80.85	273.863	268.72	
1405.81	80.8	279.315	279.492	
1405.86	80.75	275.881	273.061	
1405.91	80.7	261.982	262.941	
1405.96	80.65	280.151	290.558	
1406.01	80.6	265.637	273.287	
1406.06	80.55	269.154	253.957	
1406.11	80.5	266.16	266.476	
1406.16	80.45	251.99	259.165	
1406.21	80.4	253.227	252.68	
1406.26	80.35	257.483	267.049	
1406.31	80.3	257.606	257.924	
1406.36	80.25	257.374	270.373	
1406.41	80.2	248.576	250.619	
1406.46	80.15	259.604	290.505	
1406.51	80.1	251.78	269.755	
1406.56	80.05	263.885	257.757	
1406.61	80	252.079	243.919	
1406.66	79.95	255.173	244.365	
1406.71	79.9	249.252	248.15	
1406.76	79.85	254.326	248.807	
1406.81	79.8	253.868	267.416	
1406.86	79.75	237.961	246.977	
1406.91	79.7	247.398	265.117	
1406.96	79.65	252.087	254.56	
1407.01	79.6	247.028	253.661	
1407.06	79.55	248.684	268.715	
1407.11	79.5	254.509	258.23	
1407.16	79.45	248.34	240.311	
1407.21	79.4	246.176	255.132	
1407.26	79.35	250.609	262.56	
1407.31	79.3	252.04	240.271	
1407.36	79.25	241.233	242.209	
1407.41	79.2	243.161	267.744	
1407.46	79.15	244.101	220.874	
1407.51	79.1	247.623	241.537	
1407.56	79.05	238.361	246.693	
1407.61	79	247.418	266.374	
1407.66	78.95	240.614	249.061	
1407.71	78.9	237.064	241.118	
1407.76	78.85	238.27	235.734	
1407.81	78.8	238.205	228.386	
1407.86	78.75	240.591	241.106	
1407.91	78.7	243.199	238.16	
1407.96	78.65	243.063	249.97	
1408.01	78.6	238.5	250.349	
1408.06	78.55	234.429	227.114	
1408.11	78.5	229.51	238.189	
1408.16	78.45	238.496	239.829	
1408.21	78.4	247.524	255.818	
1408.26	78.35	238.178	238.401	
1408.31	78.3	229.704	236.227	
1408.36	78.25	226.813	234.142	
1408.41	78.2	234.51	237.139	
1408.46	78.15	244.252	236.12	
1408.51	78.1	241.905	233.417	
1408.56	78.05	243.076	277.814	
1408.61	78	235.47	244.005	
1408.66	77.95	230.971	217.007	
1408.71	77.9	231.911	216.036	
1408.76	77.85	240.087	236.804	
1408.81	77.8	239.419	231.414	
1408.86	77.75	237.642	224.691	
1408.91	77.7	239.309	233.585	
1408.96	77.65	240.895	221.884	
1409.01	77.6	241.291	233.627	
1409.06	77.55	238.844	234.821	
1409.11	77.5	233.948	223.569	
1409.16	77.45	235.889	230.439	
1409.21	77.4	235.581	235.338	
1409.26	77.35	245.004	246.322	
1409.31	77.3	234.62	237.58	
1409.36	77.25	244.628	209.04	
1409.41	77.2	235.388	213.784	
1409.46	77.15	242.792	248.032	
1409.51	77.1	241.342	214.641	
1409.56	77.05	234.483	237.595	
1409.61	77	229.083	249.872	
1409.66	76.95	239.636	235.029	
1409.71	76.9	249.433	244.836	
1409.76	76.85	241.405	240.616	
1409.81	76.8	243.724	236.114	
1409.86	76.75	245.909	240.991	
1409.91	76.7	242.038	223.004	
1409.96	76.65	253.84	242.945	
1410.01	76.6	246.263	228.18	
1410.06	76.55	246.939	254.78	
1410.11	76.5	247.818	277.356	
1410.16	76.45	238.912	233.343	
1410.21	76.4	248.399	264.989	
1410.26	76.35	243.742	273.46	
1410.31	76.3	250.298	266.98	
1410.36	76.25	246.591	238.239	
1410.41	76.2	242.745	228.831	
1410.46	76.15	248.633	222.726	
1410.51	76.1	240.577	239.127	
1410.56	76.05	240.556	227.506	
1410.61	76	237.052	239.395	
1410.66	75.95	244.083	250.477	
1410.71	75.9	247.785	280.764	
1410.76	75.85	251.152	281.109	
1410.81	75.8	250.562	244.844	
1410.86	75.75	249.339	255.688	
1410.91	75.7	249.379	271.407	
1410.96	75.65	245.567	275.553	
1411.01	75.6	253.797	246.21	
1411.06	75.55	249.119	249.199	
1411.11	75.5	254.408	262.281	
1411.16	75.45	253.107	259.695	
1411.21	75.4	252.088	246.08	
1411.26	75.35	252.539	253.417	
1411.31	75.3	250.901	270.169	
1411.36	75.25	256.551	261.737	
1411.41	75.2	258.166	255.126	
1411.46	75.15	248.592	230.634	
1411.51	75.1	256.698	237.876	
1411.56	75.05	249.022	229.26	
1411.61	75	246.273	232.48	
